Min Diameter (mm),Max Diameter (mm),Upper Deviation (µm),Lower Deviation (µm)
0.0,2.5,0,-8
2.5,6.0,0,-8
6.0,18.0,0,-8
18.0,30.0,0,-9
30.0,50.0,0,-11
50.0,80.0,0,-13
80.0,120.0,0,-15
120.0,150.0,0,-18
150.0,180.0,0,-25
180.0,250.0,0,-30
250.0,315.0,0,-35
315.0,400.0,0,-40
400.0,500.0,0,-45
500.0,630.0,0,-50
630.0,800.0,0,-75
800.0,1000.0,0,-100
1000.0,1250.0,0,-125
1250.0,1600.0,0,-160
1600.0,2000.0,0,-200
2000.0,2500.0,0,-250
